Projectile: 6Li; target: 59Co; E = 26.0 MeV
http://dx.doi.org/10.1103/PhysRevC.75.044601
Angle       R/s
10.954      1.0339                  
13.572      0.99844                 
16.48       1.0524                  
19.388      1.1093                  
22.296      1.1693                  
24.332      1.1095                  
27.533      0.98164                 
30.153      0.83859                 
33.063      0.71639                 
35.682      0.60137                 
38.593      0.48745                 
41.213      0.3951                  
43.833      0.32025                 
46.453      0.25508                 
49.073      0.20675                 
51.693      0.16758                 
54.313      0.14068                 
57.224      0.11205                 
59.844      9.0821e-2               
62.173      7.3615e-2               
65.084      5.8633e-2               
67.704      4.8365e-2               
70.324      3.9202e-2               
72.944      3.1776e-2               
75.273      2.5756e-2               
75.565      2.2784e-2   5.8664e-3   
78.186      1.7219e-2   4.8734e-3   
80.803      1.8796e-2               
83.132      1.4455e-2   2.3221e-3   
85.751      1.3245e-2               
85.753      1.0924e-2               
88.372      1.0009e-2               
90.7        8.5507e-3               
93.029      6.9307e-3               
95.941      5.1468e-3               
98.267      5.7175e-3               
100.89      4.9706e-3               
103.22      3.3817e-3   5.9251e-4   
105.55      2.4248e-3   4.2483e-4   
105.83      3.5645e-3   4.6485e-4   
107.87      2.9402e-3               
110.78      2.9405e-3   1.1397e-3   
112.82      2.1084e-3   9.0451e-4   
115.44      2.3016e-3   6.9137e-4   
115.44      1.7392e-3   6.3609e-4   
117.77      9.0989e-4   2.1018e-4   