Projectile: 7Li; target: 44Ca; E = 34.0 MeV
http://dx.doi.org/10.1016/0375-9474(80)90366-8
Angle       R/s
1.12e+01    9.35e-01                
1.23e+01    9.14e-01                
1.34e+01    8.20e-01                
1.46e+01    7.68e-01                
1.58e+01    7.27e-01                
1.68e+01    6.59e-01                
1.80e+01    5.73e-01                
1.91e+01    4.81e-01                
2.03e+01    3.96e-01                
2.13e+01    3.48e-01                
2.24e+01    3.22e-01                
2.39e+01    2.92e-01                
2.49e+01    2.62e-01                
2.61e+01    2.25e-01                
2.72e+01    1.89e-01                
2.84e+01    1.59e-01                
2.94e+01    1.35e-01                
3.06e+01    1.22e-01                
3.19e+01    1.16e-01                
3.29e+01    1.10e-01                
3.42e+01    9.56e-02                
3.53e+01    8.30e-02                
3.63e+01    6.83e-02                
3.74e+01    5.44e-02                
3.87e+01    4.78e-02                
3.98e+01    4.29e-02                
4.09e+01    3.93e-02                
4.20e+01    3.80e-02                
4.30e+01    3.45e-02                
4.43e+01    3.12e-02                
4.55e+01    2.54e-02                
4.65e+01    2.05e-02                
4.77e+01    1.63e-02                
4.87e+01    1.35e-02                
4.99e+01    1.30e-02                
5.10e+01    1.16e-02                
5.22e+01    1.21e-02                
5.33e+01    1.12e-02                
5.45e+01    9.90e-03                
5.55e+01    8.15e-03                
5.65e+01    6.85e-03                
5.76e+01    4.21e-03                
5.88e+01    4.12e-03                
5.98e+01    3.42e-03    2.49e-04    
6.11e+01    3.31e-03    2.74e-04    
6.21e+01    3.65e-03                
6.30e+01    3.81e-03                
6.44e+01    3.61e-03    4.04e-04    
6.56e+01    2.60e-03    2.97e-04    
6.65e+01    2.63e-03                
6.75e+01    1.65e-03    1.85e-04    
6.87e+01    8.75e-04    1.22e-04    
6.99e+01    1.06e-03    1.08e-04    
7.09e+01    8.46e-04    1.10e-04    
7.19e+01    1.02e-03    9.52e-05    
7.29e+01    1.07e-03    1.09e-04    
7.40e+01    1.16e-03    9.66e-05    
7.51e+01    9.93e-04    1.11e-04    
7.61e+01    9.92e-04    1.11e-04    
7.73e+01    4.56e-04    8.05e-05    
7.95e+01    5.29e-04    1.58e-04    